 GaAs Density=5.316 Thickness=5.00000E-02 microns
 Photon Energy (eV), Transmission
    10.000      0.27802E-02
    10.280      0.30676E-02
    10.560      0.33686E-02
    10.840      0.36831E-02
    11.120      0.41020E-02
    11.400      0.46561E-02
    11.680      0.52429E-02
    11.960      0.61216E-02
    12.240      0.72743E-02
    12.520      0.88315E-02
    12.800      0.10661E-01
    13.080      0.12898E-01
    13.360      0.15646E-01
    13.640      0.19934E-01
    13.920      0.25485E-01
    14.200      0.31057E-01
    14.480      0.36822E-01
    14.760      0.43043E-01
    15.040      0.48513E-01
    15.320      0.52968E-01
    15.600      0.57472E-01
    15.880      0.61896E-01
    16.160      0.66314E-01
    16.440      0.72129E-01
    16.720      0.78793E-01
    17.000      0.85664E-01
    17.280      0.92206E-01
    17.560      0.98881E-01
    17.840      0.10565    
    18.120      0.11221    
    18.400      0.11865    
    18.680      0.12783    
    18.960      0.13546    
    19.240      0.14131    
    19.520      0.14666    
    19.800      0.15272    
    20.080      0.15893    
    20.360      0.16506    
    20.640      0.17191    
    20.920      0.17959    
    21.200      0.18695    
    21.480      0.19584    
    21.760      0.20574    
    22.040      0.21695    
    22.320      0.22996    
    22.600      0.24414    
    22.880      0.25817    
    23.160      0.27237    
    23.440      0.28688    
    23.720      0.30177    
    24.000      0.31648    
    24.280      0.33109    
    24.560      0.34561    
    24.840      0.35898    
    25.120      0.37087    
    25.400      0.38153    
    25.680      0.39177    
    25.960      0.40159    
    26.240      0.41098    
    26.520      0.41997    
    26.800      0.42897    
    27.080      0.43773    
    27.360      0.44606    
    27.640      0.45331    
    27.920      0.45962    
    28.200      0.46548    
    28.480      0.47089    
    28.760      0.47588    
    29.040      0.48013    
    29.320      0.48387    
    29.600      0.48660    
    29.880      0.48909    
    30.160      0.49135    
    30.440      0.49338    
    30.720      0.49520    
    31.000      0.49681    
    31.280      0.49823    
    31.560      0.49945    
    31.840      0.50071    
    32.120      0.50222    
    32.400      0.50360    
    32.680      0.50485    
    32.960      0.50589    
    33.240      0.50673    
    33.520      0.50646    
    33.800      0.50578    
    34.080      0.50503    
    34.360      0.50422    
    34.640      0.50324    
    34.920      0.50219    
    35.200      0.50068    
    35.480      0.49908    
    35.760      0.49747    
    36.040      0.49583    
    36.320      0.49378    
    36.600      0.49164    
    36.880      0.48923    
    37.160      0.48672    
    37.440      0.48384    
    37.720      0.48073    
    38.000      0.47785    
    38.280      0.47527    
    38.560      0.47231    
    38.840      0.46819    
    39.120      0.46396    
    39.400      0.45827    
    39.680      0.45237    
    39.960      0.44628    
    40.240      0.43997    
    40.520      0.43356    
    40.800      0.42706    
    41.080      0.42042    
    41.360      0.41390    
    41.640      0.40721    
    41.920      0.40210    
    42.200      0.39743    
    42.480      0.39318    
    42.760      0.38971    
    43.040      0.38624    
    43.320      0.38519    
    43.600      0.38435    
    43.880      0.38362    
    44.160      0.38301    
    44.440      0.38240    
    44.720      0.38179    
    45.000      0.38118    
    45.280      0.38064    
    45.560      0.38026    
    45.840      0.37987    
    46.120      0.37986    
    46.400      0.37999    
    46.680      0.38012    
    46.960      0.38024    
    47.240      0.38035    
    47.520      0.38046    
    47.800      0.38055    
    48.080      0.38065    
    48.360      0.38043    
    48.640      0.38004    
    48.920      0.37965    
    49.200      0.37859    
    49.480      0.37742    
    49.760      0.37626    
    50.040      0.37510    
    50.320      0.37395    
    50.600      0.37280    
    50.880      0.37165    
    51.160      0.37051    
    51.440      0.36934    
    51.720      0.36803    
    52.000      0.36673    
    52.280      0.36536    
    52.560      0.36379    
    52.840      0.36221    
    53.120      0.36064    
    53.400      0.35908    
    53.680      0.35751    
    53.960      0.35596    
    54.240      0.35448    
    54.520      0.35300    
    54.800      0.35152    
    55.080      0.35006    
    55.360      0.34860    
    55.640      0.34714    
    55.920      0.34564    
    56.200      0.34413    
    56.480      0.34263    
    56.760      0.34108    
    57.040      0.33952    
    57.320      0.33795    
    57.600      0.33639    
    57.880      0.33483    
    58.160      0.33327    
    58.440      0.33171    
    58.720      0.33015    
    59.000      0.32859    
    59.280      0.32703    
    59.560      0.32548    
    59.840      0.32392    
    60.120      0.32237    
    60.400      0.32082    
    60.680      0.31927    
    60.960      0.31772    
    61.240      0.31617    
    61.520      0.31476    
    61.800      0.31337    
    62.080      0.31199    
    62.360      0.31062    
    62.640      0.30926    
    62.920      0.30791    
    63.200      0.30656    
    63.480      0.30538    
    63.760      0.30427    
    64.040      0.30316    
    64.320      0.30205    
    64.600      0.30100    
    64.880      0.29996    
    65.160      0.29890    
    65.440      0.29785    
    65.720      0.29680    
    66.000      0.29575    
    66.280      0.29470    
    66.560      0.29365    
    66.840      0.29259    
    67.120      0.29154    
    67.400      0.29049    
    67.680      0.28964    
    67.960      0.28888    
    68.240      0.28812    
    68.520      0.28736    
    68.800      0.28667    
    69.080      0.28600    
    69.360      0.28533    
    69.640      0.28466    
    69.920      0.28399    
    70.200      0.28333    
    70.480      0.28266    
    70.760      0.28200    
    71.040      0.28134    
    71.320      0.28068    
    71.600      0.28001    
    71.880      0.27935    
    72.160      0.27871    
    72.440      0.27806    
    72.720      0.27742    
    73.000      0.27677    
    73.280      0.27622    
    73.560      0.27573    
    73.840      0.27524    
    74.120      0.27475    
    74.400      0.27431    
    74.680      0.27397    
    74.960      0.27362    
    75.240      0.27327    
    75.520      0.27293    
    75.800      0.27258    
    76.080      0.27224    
    76.360      0.27189    
    76.640      0.27154    
    76.920      0.27120    
    77.200      0.27085    
    77.480      0.27050    
    77.760      0.27016    
    78.040      0.26981    
    78.320      0.26946    
    78.600      0.26912    
    78.880      0.26877    
    79.160      0.26842    
    79.440      0.26807    
    79.720      0.26773    
    80.000      0.26738    
    80.280      0.26703    
    80.560      0.26669    
    80.840      0.26634    
    81.120      0.26599    
    81.400      0.26565    
    81.680      0.26530    
    81.960      0.26495    
    82.240      0.26461    
    82.520      0.26426    
    82.800      0.26391    
    83.080      0.26357    
    83.360      0.26317    
    83.640      0.26275    
    83.920      0.26234    
    84.200      0.26193    
    84.480      0.26152    
    84.760      0.26108    
    85.040      0.26065    
    85.320      0.26022    
    85.600      0.25978    
    85.880      0.25936    
    86.160      0.25901    
    86.440      0.25866    
    86.720      0.25832    
    87.000      0.25797    
    87.280      0.25764    
    87.560      0.25736    
    87.840      0.25708    
    88.120      0.25681    
    88.400      0.25654    
    88.680      0.25626    
    88.960      0.25599    
    89.240      0.25572    
    89.520      0.25545    
    89.800      0.25518    
    90.080      0.25491    
    90.360      0.25463    
    90.640      0.25437    
    90.920      0.25410    
    91.200      0.25383    
    91.480      0.25356    
    91.760      0.25329    
    92.040      0.25303    
    92.320      0.25276    
    92.600      0.25249    
    92.880      0.25223    
    93.160      0.25196    
    93.440      0.25168    
    93.720      0.25141    
    94.000      0.25113    
    94.280      0.25086    
    94.560      0.25058    
    94.840      0.25027    
    95.120      0.24996    
    95.400      0.24965    
    95.680      0.24934    
    95.960      0.24903    
    96.240      0.24871    
    96.520      0.24838    
    96.800      0.24805    
    97.080      0.24772    
    97.360      0.24739    
    97.640      0.24708    
    97.920      0.24684    
    98.200      0.24661    
    98.480      0.24638    
    98.760      0.24615    
    99.040      0.24592    
    99.320      0.24572    
    99.600      0.24556    
    99.880      0.24540    
    100.16      0.24524    
    100.44      0.24508    
    100.72      0.24492    
    101.00      0.24476    
    101.28      0.24460    
    101.56      0.24444    
    101.84      0.24429    
    102.12      0.24413    
    102.40      0.24397    
    102.68      0.24382    
    102.96      0.24366    
    103.24      0.24351    
    103.52      0.24335    
    103.80      0.24320    
    104.08      0.24304    
    104.36      0.24289    
    104.64      0.24274    
    104.92      0.24258    
    105.20      0.24243    
    105.48      0.24228    
    105.76      0.24213    
    106.04      0.24198    
    106.32      0.24183    
    106.60      0.24168    
    106.88      0.24153    
    107.16      0.24138    
    107.44      0.24123    
    107.72      0.24108    
    108.00      0.24093    
    108.28      0.24078    
    108.56      0.24064    
    108.84      0.24049    
    109.12      0.24034    
    109.40      0.24020    
    109.68      0.24007    
    109.96      0.23994    
    110.24      0.23980    
    110.52      0.23967    
    110.80      0.23954    
    111.08      0.23941    
    111.36      0.23929    
    111.64      0.23917    
    111.92      0.23905    
    112.20      0.23893    
    112.48      0.23881    
    112.76      0.23869    
    113.04      0.23876    
    113.32      0.23884    
    113.60      0.23892    
    113.88      0.23900    
    114.16      0.23907    
    114.44      0.23915    
    114.72      0.23924    
    115.00      0.23933    
    115.28      0.23942    
    115.56      0.23951    
    115.84      0.23960    
    116.12      0.23969    
    116.40      0.23978    
    116.68      0.23987    
    116.96      0.23996    
    117.24      0.24005    
    117.52      0.24014    
    117.80      0.24022    
    118.08      0.24031    
    118.36      0.24040    
    118.64      0.24048    
    118.92      0.24057    
    119.20      0.24066    
    119.48      0.24074    
    119.76      0.24083    
    120.04      0.24091    
    120.32      0.24100    
    120.60      0.24108    
    120.88      0.24117    
    121.16      0.24125    
    121.44      0.24133    
    121.72      0.24142    
    122.00      0.24150    
    122.28      0.24160    
    122.56      0.24172    
    122.84      0.24183    
    123.12      0.24195    
    123.40      0.24207    
    123.68      0.24219    
    123.96      0.24231    
    124.24      0.24243    
    124.52      0.24258    
    124.80      0.24273    
    125.08      0.24288    
    125.36      0.24303    
    125.64      0.24318    
    125.92      0.24333    
    126.20      0.24347    
    126.48      0.24362    
    126.76      0.24377    
    127.04      0.24391    
    127.32      0.24406    
    127.60      0.24421    
    127.88      0.24435    
    128.16      0.24449    
    128.44      0.24464    
    128.72      0.24478    
    129.00      0.24493    
    129.28      0.24507    
    129.56      0.24521    
    129.84      0.24536    
    130.12      0.24550    
    130.40      0.24564    
    130.68      0.24578    
    130.96      0.24592    
    131.24      0.24607    
    131.52      0.24621    
    131.80      0.24635    
    132.08      0.24649    
    132.36      0.24663    
    132.64      0.24677    
    132.92      0.24691    
    133.20      0.24705    
    133.48      0.24718    
    133.76      0.24732    
    134.04      0.24746    
    134.32      0.24760    
    134.60      0.24773    
    134.88      0.24787    
    135.16      0.24801    
    135.44      0.24814    
    135.72      0.24828    
    136.00      0.24841    
    136.28      0.24855    
    136.56      0.24868    
    136.84      0.24882    
    137.12      0.24895    
    137.40      0.24909    
    137.68      0.24922    
    137.96      0.24935    
    138.24      0.24948    
    138.52      0.24962    
    138.80      0.24975    
    139.08      0.24995    
    139.36      0.25020    
    139.64      0.25045    
    139.92      0.25070    
    140.20      0.25094    
    140.48      0.25119    
    140.76      0.25144    
    141.04      0.25168    
    141.32      0.25196    
    141.60      0.25227    
    141.88      0.25257    
    142.16      0.25288    
    142.44      0.25318    
    142.72      0.25349    
    143.00      0.25379    
    143.28      0.25409    
    143.56      0.25439    
    143.84      0.25469    
    144.12      0.25499    
    144.40      0.25529    
    144.68      0.25559    
    144.96      0.25589    
    145.24      0.25618    
    145.52      0.25648    
    145.80      0.25678    
    146.08      0.25715    
    146.36      0.25752    
    146.64      0.25789    
    146.92      0.25826    
    147.20      0.25863    
    147.48      0.25900    
    147.76      0.25936    
    148.04      0.25973    
    148.32      0.26013    
    148.60      0.26056    
    148.88      0.26098    
    149.16      0.26140    
    149.44      0.26182    
    149.72      0.26224    
    150.00      0.26266    
