 Si Density=2.33 Thickness=0.1 microns
 Photon Energy (eV), Transmission
    10.000      0.10324E-05
    10.280      0.14442E-05
    10.560      0.19864E-05
    10.840      0.26899E-05
    11.120      0.35903E-05
    11.400      0.47282E-05
    11.680      0.61491E-05
    11.960      0.80151E-05
    12.240      0.11903E-04
    12.520      0.17989E-04
    12.800      0.26552E-04
    13.080      0.38341E-04
    13.360      0.54261E-04
    13.640      0.75367E-04
    13.920      0.10315E-03
    14.200      0.15671E-03
    14.480      0.24356E-03
    14.760      0.36735E-03
    15.040      0.53904E-03
    15.320      0.77133E-03
    15.600      0.10785E-02
    15.880      0.14764E-02
    16.160      0.21595E-02
    16.440      0.32317E-02
    16.720      0.46942E-02
    17.000      0.66177E-02
    17.280      0.90806E-02
    17.560      0.12157E-01
    17.840      0.16043E-01
    18.120      0.22710E-01
    18.400      0.35432E-01
    18.680      0.52171E-01
    18.960      0.73099E-01
    19.240      0.98146E-01
    19.520      0.12702    
    19.800      0.15926    
    20.080      0.19797    
    20.360      0.24232    
    20.640      0.28398    
    20.920      0.31166    
    21.200      0.33932    
    21.480      0.36621    
    21.760      0.39221    
    22.040      0.41746    
    22.320      0.44190    
    22.600      0.46081    
    22.880      0.47655    
    23.160      0.49111    
    23.440      0.50532    
    23.720      0.51918    
    24.000      0.53269    
    24.280      0.54505    
    24.560      0.55592    
    24.840      0.56525    
    25.120      0.57436    
    25.400      0.58325    
    25.680      0.59194    
    25.960      0.60042    
    26.240      0.60869    
    26.520      0.61677    
    26.800      0.62106    
    27.080      0.62357    
    27.360      0.62603    
    27.640      0.62846    
    27.920      0.63085    
    28.200      0.63321    
    28.480      0.63554    
    28.760      0.63783    
    29.040      0.64009    
    29.320      0.64232    
    29.600      0.64452    
    29.880      0.64669    
    30.160      0.64883    
    30.440      0.65094    
    30.720      0.65303    
    31.000      0.65508    
    31.280      0.65706    
    31.560      0.65874    
    31.840      0.66014    
    32.120      0.66100    
    32.400      0.66186    
    32.680      0.66270    
    32.960      0.66353    
    33.240      0.66436    
    33.520      0.66518    
    33.800      0.66599    
    34.080      0.66679    
    34.360      0.66758    
    34.640      0.66837    
    34.920      0.66914    
    35.200      0.66991    
    35.480      0.67068    
    35.760      0.67143    
    36.040      0.67218    
    36.320      0.67292    
    36.600      0.67366    
    36.880      0.67438    
    37.160      0.67510    
    37.440      0.67582    
    37.720      0.67653    
    38.000      0.67723    
    38.280      0.67792    
    38.560      0.67861    
    38.840      0.67929    
    39.120      0.67998    
    39.400      0.68095    
    39.680      0.68190    
    39.960      0.68321    
    40.240      0.68461    
    40.520      0.68600    
    40.800      0.68737    
    41.080      0.68873    
    41.360      0.69007    
    41.640      0.69140    
    41.920      0.69272    
    42.200      0.69402    
    42.480      0.69531    
    42.760      0.69659    
    43.040      0.69786    
    43.320      0.69911    
    43.600      0.70035    
    43.880      0.70158    
    44.160      0.70280    
    44.440      0.70401    
    44.720      0.70521    
    45.000      0.70639    
    45.280      0.70756    
    45.560      0.70873    
    45.840      0.70988    
    46.120      0.71111    
    46.400      0.71236    
    46.680      0.71360    
    46.960      0.71488    
    47.240      0.71615    
    47.520      0.71741    
    47.800      0.71866    
    48.080      0.71989    
    48.360      0.72112    
    48.640      0.72233    
    48.920      0.72353    
    49.200      0.72472    
    49.480      0.72590    
    49.760      0.72707    
    50.040      0.72823    
    50.320      0.72937    
    50.600      0.73051    
    50.880      0.73164    
    51.160      0.73276    
    51.440      0.73386    
    51.720      0.73496    
    52.000      0.73605    
    52.280      0.73709    
    52.560      0.73803    
    52.840      0.73896    
    53.120      0.73980    
    53.400      0.74039    
    53.680      0.74098    
    53.960      0.74157    
    54.240      0.74215    
    54.520      0.74272    
    54.800      0.74329    
    55.080      0.74386    
    55.360      0.74443    
    55.640      0.74499    
    55.920      0.74554    
    56.200      0.74610    
    56.480      0.74665    
    56.760      0.74719    
    57.040      0.74773    
    57.320      0.74827    
    57.600      0.74881    
    57.880      0.74934    
    58.160      0.74987    
    58.440      0.75039    
    58.720      0.75091    
    59.000      0.75143    
    59.280      0.75194    
    59.560      0.75183    
    59.840      0.75150    
    60.120      0.75116    
    60.400      0.75079    
    60.680      0.75035    
    60.960      0.74992    
    61.240      0.74948    
    61.520      0.74905    
    61.800      0.74862    
    62.080      0.74819    
    62.360      0.74776    
    62.640      0.74733    
    62.920      0.74691    
    63.200      0.74648    
    63.480      0.74606    
    63.760      0.74564    
    64.040      0.74522    
    64.320      0.74480    
    64.600      0.74444    
    64.880      0.74409    
    65.160      0.74374    
    65.440      0.74366    
    65.720      0.74417    
    66.000      0.74467    
    66.280      0.74518    
    66.560      0.74568    
    66.840      0.74618    
    67.120      0.74667    
    67.400      0.74717    
    67.680      0.74766    
    67.960      0.74814    
    68.240      0.74863    
    68.520      0.74911    
    68.800      0.74959    
    69.080      0.75006    
    69.360      0.75054    
    69.640      0.75101    
    69.920      0.75217    
    70.200      0.75345    
    70.480      0.75472    
    70.760      0.75598    
    71.040      0.75793    
    71.320      0.76002    
    71.600      0.76209    
    71.880      0.76414    
    72.160      0.76616    
    72.440      0.76816    
    72.720      0.77014    
    73.000      0.77209    
    73.280      0.77403    
    73.560      0.77594    
    73.840      0.77784    
    74.120      0.77971    
    74.400      0.78182    
    74.680      0.78441    
    74.960      0.78697    
    75.240      0.78949    
    75.520      0.79200    
    75.800      0.79504    
    76.080      0.79803    
    76.360      0.80097    
    76.640      0.80386    
    76.920      0.80670    
    77.200      0.80950    
    77.480      0.81226    
    77.760      0.81497    
    78.040      0.81762    
    78.320      0.82022    
    78.600      0.82277    
    78.880      0.82528    
    79.160      0.82775    
    79.440      0.82907    
    79.720      0.82999    
    80.000      0.83091    
    80.280      0.83182    
    80.560      0.83272    
    80.840      0.83362    
    81.120      0.83450    
    81.400      0.83538    
    81.680      0.83625    
    81.960      0.83712    
    82.240      0.83798    
    82.520      0.83883    
    82.800      0.83967    
    83.080      0.84051    
    83.360      0.84131    
    83.640      0.84209    
    83.920      0.84286    
    84.200      0.84363    
    84.480      0.84439    
    84.760      0.84439    
    85.040      0.84439    
    85.320      0.84439    
    85.600      0.84439    
    85.880      0.84439    
    86.160      0.84439    
    86.440      0.84439    
    86.720      0.84439    
    87.000      0.84439    
    87.280      0.84439    
    87.560      0.84439    
    87.840      0.84439    
    88.120      0.84439    
    88.400      0.84439    
    88.680      0.84439    
    88.960      0.84439    
    89.240      0.84439    
    89.520      0.84439    
    89.800      0.84439    
    90.080      0.84439    
    90.360      0.84431    
    90.640      0.84422    
    90.920      0.84413    
    91.200      0.84405    
    91.480      0.84396    
    91.760      0.84373    
    92.040      0.84347    
    92.320      0.84320    
    92.600      0.84294    
    92.880      0.84268    
    93.160      0.84242    
    93.440      0.84215    
    93.720      0.84189    
    94.000      0.84163    
    94.280      0.84137    
    94.560      0.84111    
    94.840      0.84085    
    95.120      0.84059    
    95.400      0.84033    
    95.680      0.84007    
    95.960      0.83981    
    96.240      0.83948    
    96.520      0.83913    
    96.800      0.83877    
    97.080      0.83841    
    97.360      0.83805    
    97.640      0.83765    
    97.920      0.83689    
    98.200      0.83613    
    98.480      0.83537    
    98.760      0.83461    
    99.040      0.83384    
    99.320      0.83308    
    99.600      0.82910    
    99.880      0.55507    
    100.16      0.42277    
    100.44      0.31326    
    100.72      0.20317    
    101.00      0.16979    
    101.28      0.16794    
    101.56      0.18673    
    101.84      0.23196    
    102.12      0.26887    
    102.40      0.27746    
    102.68      0.26951    
    102.96      0.29080    
    103.24      0.29202    
    103.52      0.31825    
    103.80      0.32609    
    104.08      0.32845    
    104.36      0.33376    
    104.64      0.33178    
    104.92      0.32993    
    105.20      0.32179    
    105.48      0.30857    
    105.76      0.28685    
    106.04      0.26345    
    106.32      0.25448    
    106.60      0.24450    
    106.88      0.23450    
    107.16      0.22926    
    107.44      0.22516    
    107.72      0.21992    
    108.00      0.21382    
    108.28      0.20898    
    108.56      0.20575    
    108.84      0.20471    
    109.12      0.20356    
    109.40      0.20324    
    109.68      0.20006    
    109.96      0.19682    
    110.24      0.19227    
    110.52      0.18811    
    110.80      0.18318    
    111.08      0.17852    
    111.36      0.17441    
    111.64      0.17095    
    111.92      0.16812    
    112.20      0.16531    
    112.48      0.16254    
    112.76      0.16041    
    113.04      0.15835    
    113.32      0.15631    
    113.60      0.15429    
    113.88      0.15228    
    114.16      0.14936    
    114.44      0.14578    
    114.72      0.14201    
    115.00      0.13824    
    115.28      0.13420    
    115.56      0.13018    
    115.84      0.12607    
    116.12      0.12203    
    116.40      0.11807    
    116.68      0.11419    
    116.96      0.11039    
    117.24      0.10737    
    117.52      0.10455    
    117.80      0.10208    
    118.08      0.10001    
    118.36      0.98848E-01
    118.64      0.97362E-01
    118.92      0.95561E-01
    119.20      0.95024E-01
    119.48      0.94987E-01
    119.76      0.94131E-01
    120.04      0.93217E-01
    120.32      0.92311E-01
    120.60      0.91413E-01
    120.88      0.90521E-01
    121.16      0.89637E-01
    121.44      0.88760E-01
    121.72      0.88092E-01
    122.00      0.87485E-01
    122.28      0.87241E-01
    122.56      0.86998E-01
    122.84      0.86756E-01
    123.12      0.86515E-01
    123.40      0.86275E-01
    123.68      0.86255E-01
    123.96      0.86356E-01
    124.24      0.85880E-01
    124.52      0.85374E-01
    124.80      0.85710E-01
    125.08      0.85880E-01
    125.36      0.85639E-01
    125.64      0.85398E-01
    125.92      0.85159E-01
    126.20      0.84920E-01
    126.48      0.84683E-01
    126.76      0.84446E-01
    127.04      0.84233E-01
    127.32      0.84156E-01
    127.60      0.83921E-01
    127.88      0.83402E-01
    128.16      0.82887E-01
    128.44      0.82375E-01
    128.72      0.81933E-01
    129.00      0.81512E-01
    129.28      0.81093E-01
    129.56      0.80591E-01
    129.84      0.79786E-01
    130.12      0.79090E-01
    130.40      0.78536E-01
    130.68      0.77984E-01
    130.96      0.77437E-01
    131.24      0.76892E-01
    131.52      0.76388E-01
    131.80      0.76358E-01
    132.08      0.76328E-01
    132.36      0.76298E-01
    132.64      0.76268E-01
    132.92      0.76239E-01
    133.20      0.76724E-01
    133.48      0.77416E-01
    133.76      0.78783E-01
    134.04      0.80214E-01
    134.32      0.81657E-01
    134.60      0.83274E-01
    134.88      0.85200E-01
    135.16      0.87148E-01
    135.44      0.89117E-01
    135.72      0.91109E-01
    136.00      0.93122E-01
    136.28      0.94584E-01
    136.56      0.96002E-01
    136.84      0.97229E-01
    137.12      0.98630E-01
    137.40      0.10027    
    137.68      0.10101    
    137.96      0.10126    
    138.24      0.10150    
    138.52      0.10175    
    138.80      0.10199    
    139.08      0.10224    
    139.36      0.10248    
    139.64      0.10264    
    139.92      0.10271    
    140.20      0.10248    
    140.48      0.10213    
    140.76      0.10244    
    141.04      0.10281    
    141.32      0.10317    
    141.60      0.10369    
    141.88      0.10448    
    142.16      0.10500    
    142.44      0.10532    
    142.72      0.10588    
    143.00      0.10651    
    143.28      0.10591    
    143.56      0.10530    
    143.84      0.10471    
    144.12      0.10427    
    144.40      0.10405    
    144.68      0.10383    
    144.96      0.10361    
    145.24      0.10301    
    145.52      0.10241    
    145.80      0.10256    
    146.08      0.10256    
    146.36      0.10219    
    146.64      0.10203    
    146.92      0.10209    
    147.20      0.10190    
    147.48      0.10161    
    147.76      0.10186    
    148.04      0.10210    
    148.32      0.10204    
    148.60      0.10213    
    148.88      0.10252    
    149.16      0.10292    
    149.44      0.10331    
    149.72      0.10393    
    150.00      0.10463    
