 WS2 Density=7.5 Thickness=2.00000E-02 microns
 Photon Energy (eV), Transmission
    10.000      0.77854E-01
    10.280      0.68684E-01
    10.560      0.60573E-01
    10.840      0.53430E-01
    11.120      0.47022E-01
    11.400      0.40474E-01
    11.680      0.33246E-01
    11.960      0.27511E-01
    12.240      0.24677E-01
    12.520      0.22493E-01
    12.800      0.20915E-01
    13.080      0.20514E-01
    13.360      0.20153E-01
    13.640      0.19803E-01
    13.920      0.19464E-01
    14.200      0.19133E-01
    14.480      0.19187E-01
    14.760      0.19821E-01
    15.040      0.20449E-01
    15.320      0.21072E-01
    15.600      0.21758E-01
    15.880      0.22497E-01
    16.160      0.23240E-01
    16.440      0.23984E-01
    16.720      0.24777E-01
    17.000      0.27013E-01
    17.280      0.29676E-01
    17.560      0.32462E-01
    17.840      0.35365E-01
    18.120      0.38381E-01
    18.400      0.41504E-01
    18.680      0.44731E-01
    18.960      0.48457E-01
    19.240      0.52506E-01
    19.520      0.56724E-01
    19.800      0.61074E-01
    20.080      0.66165E-01
    20.360      0.72021E-01
    20.640      0.78119E-01
    20.920      0.84588E-01
    21.200      0.91692E-01
    21.480      0.99016E-01
    21.760      0.10654    
    22.040      0.11426    
    22.320      0.12212    
    22.600      0.12979    
    22.880      0.13932    
    23.160      0.14964    
    23.440      0.16019    
    23.720      0.17087    
    24.000      0.18243    
    24.280      0.19397    
    24.560      0.20505    
    24.840      0.21622    
    25.120      0.22743    
    25.400      0.23904    
    25.680      0.25298    
    25.960      0.26745    
    26.240      0.28216    
    26.520      0.29693    
    26.800      0.31262    
    27.080      0.32862    
    27.360      0.34426    
    27.640      0.35948    
    27.920      0.37430    
    28.200      0.39039    
    28.480      0.40627    
    28.760      0.42199    
    29.040      0.43763    
    29.320      0.45332    
    29.600      0.47308    
    29.880      0.49227    
    30.160      0.51098    
    30.440      0.52656    
    30.720      0.54041    
    31.000      0.55323    
    31.280      0.56549    
    31.560      0.57690    
    31.840      0.58784    
    32.120      0.59827    
    32.400      0.60814    
    32.680      0.61747    
    32.960      0.62595    
    33.240      0.63382    
    33.520      0.64123    
    33.800      0.64831    
    34.080      0.65514    
    34.360      0.66172    
    34.640      0.66636    
    34.920      0.67050    
    35.200      0.67292    
    35.480      0.67489    
    35.760      0.67666    
    36.040      0.67823    
    36.320      0.67955    
    36.600      0.68069    
    36.880      0.67578    
    37.160      0.66812    
    37.440      0.65896    
    37.720      0.64854    
    38.000      0.63695    
    38.280      0.62397    
    38.560      0.61038    
    38.840      0.59616    
    39.120      0.58140    
    39.400      0.56609    
    39.680      0.55029    
    39.960      0.52865    
    40.240      0.50471    
    40.520      0.48497    
    40.800      0.47024    
    41.080      0.45752    
    41.360      0.45760    
    41.640      0.45767    
    41.920      0.45751    
    42.200      0.45729    
    42.480      0.45970    
    42.760      0.46663    
    43.040      0.47347    
    43.320      0.48120    
    43.600      0.48890    
    43.880      0.49848    
    44.160      0.51047    
    44.440      0.52219    
    44.720      0.52636    
    45.000      0.52969    
    45.280      0.53243    
    45.560      0.53407    
    45.840      0.53569    
    46.120      0.53407    
    46.400      0.53123    
    46.680      0.52816    
    46.960      0.52200    
    47.240      0.51583    
    47.520      0.50891    
    47.800      0.50073    
    48.080      0.49253    
    48.360      0.48361    
    48.640      0.47427    
    48.920      0.46491    
    49.200      0.45552    
    49.480      0.44612    
    49.760      0.43676    
    50.040      0.42910    
    50.320      0.42146    
    50.600      0.41451    
    50.880      0.41127    
    51.160      0.40805    
    51.440      0.40537    
    51.720      0.40446    
    52.000      0.40355    
    52.280      0.40341    
    52.560      0.40538    
    52.840      0.40734    
    53.120      0.40929    
    53.400      0.41123    
    53.680      0.41316    
    53.960      0.41529    
    54.240      0.41834    
    54.520      0.42136    
    54.800      0.42448    
    55.080      0.42915    
    55.360      0.43378    
    55.640      0.43837    
    55.920      0.44289    
    56.200      0.44737    
    56.480      0.45181    
    56.760      0.45617    
    57.040      0.46046    
    57.320      0.46470    
    57.600      0.46890    
    57.880      0.47306    
    58.160      0.47717    
    58.440      0.48125    
    58.720      0.48545    
    59.000      0.48961    
    59.280      0.49373    
    59.560      0.49785    
    59.840      0.50194    
    60.120      0.50599    
    60.400      0.51000    
    60.680      0.51394    
    60.960      0.51784    
    61.240      0.52170    
    61.520      0.52547    
    61.800      0.52918    
    62.080      0.53285    
    62.360      0.53648    
    62.640      0.54008    
    62.920      0.54363    
    63.200      0.54714    
    63.480      0.55064    
    63.760      0.55410    
    64.040      0.55753    
    64.320      0.56092    
    64.600      0.56459    
    64.880      0.56821    
    65.160      0.57179    
    65.440      0.57542    
    65.720      0.57920    
    66.000      0.58294    
    66.280      0.58663    
    66.560      0.59028    
    66.840      0.59389    
    67.120      0.59745    
    67.400      0.60097    
    67.680      0.60450    
    67.960      0.60801    
    68.240      0.61147    
    68.520      0.61490    
    68.800      0.61829    
    69.080      0.62165    
    69.360      0.62497    
    69.640      0.62824    
    69.920      0.63148    
    70.200      0.63469    
    70.480      0.63785    
    70.760      0.64098    
    71.040      0.64408    
    71.320      0.64715    
    71.600      0.65018    
    71.880      0.65318    
    72.160      0.65646    
    72.440      0.65983    
    72.720      0.66315    
    73.000      0.66644    
    73.280      0.66971    
    73.560      0.67296    
    73.840      0.67616    
    74.120      0.67933    
    74.400      0.68246    
    74.680      0.68553    
    74.960      0.68857    
    75.240      0.69156    
    75.520      0.69452    
    75.800      0.69739    
    76.080      0.70021    
    76.360      0.70301    
    76.640      0.70576    
    76.920      0.70848    
    77.200      0.71117    
    77.480      0.71382    
    77.760      0.71644    
    78.040      0.71903    
    78.320      0.72159    
    78.600      0.72412    
    78.880      0.72661    
    79.160      0.72908    
    79.440      0.73154    
    79.720      0.73399    
    80.000      0.73640    
    80.280      0.73878    
    80.560      0.74105    
    80.840      0.74285    
    81.120      0.74464    
    81.400      0.74641    
    81.680      0.74816    
    81.960      0.74986    
    82.240      0.75151    
    82.520      0.75314    
    82.800      0.75476    
    83.080      0.75636    
    83.360      0.75795    
    83.640      0.75952    
    83.920      0.76108    
    84.200      0.76262    
    84.480      0.76415    
    84.760      0.76566    
    85.040      0.76716    
    85.320      0.76865    
    85.600      0.77012    
    85.880      0.77152    
    86.160      0.77247    
    86.440      0.77342    
    86.720      0.77435    
    87.000      0.77528    
    87.280      0.77618    
    87.560      0.77692    
    87.840      0.77765    
    88.120      0.77838    
    88.400      0.77910    
    88.680      0.77982    
    88.960      0.78054    
    89.240      0.78125    
    89.520      0.78196    
    89.800      0.78267    
    90.080      0.78337    
    90.360      0.78407    
    90.640      0.78477    
    90.920      0.78547    
    91.200      0.78616    
    91.480      0.78684    
    91.760      0.78712    
    92.040      0.78728    
    92.320      0.78744    
    92.600      0.78759    
    92.880      0.78775    
    93.160      0.78789    
    93.440      0.78802    
    93.720      0.78814    
    94.000      0.78827    
    94.280      0.78839    
    94.560      0.78851    
    94.840      0.78863    
    95.120      0.78875    
    95.400      0.78887    
    95.680      0.78899    
    95.960      0.78911    
    96.240      0.78922    
    96.520      0.78934    
    96.800      0.78945    
    97.080      0.78957    
    97.360      0.78968    
    97.640      0.78979    
    97.920      0.78983    
    98.200      0.78987    
    98.480      0.78992    
    98.760      0.78996    
    99.040      0.79000    
    99.320      0.79005    
    99.600      0.79010    
    99.880      0.79015    
    100.16      0.79020    
    100.44      0.79025    
    100.72      0.79030    
    101.00      0.79037    
    101.28      0.79044    
    101.56      0.79052    
    101.84      0.79059    
    102.12      0.79066    
    102.40      0.79073    
    102.68      0.79080    
    102.96      0.79086    
    103.24      0.79093    
    103.52      0.79099    
    103.80      0.79105    
    104.08      0.79112    
    104.36      0.79118    
    104.64      0.79124    
    104.92      0.79130    
    105.20      0.79135    
    105.48      0.79141    
    105.76      0.79147    
    106.04      0.79151    
    106.32      0.79156    
    106.60      0.79161    
    106.88      0.79165    
    107.16      0.79170    
    107.44      0.79174    
    107.72      0.79177    
    108.00      0.79180    
    108.28      0.79182    
    108.56      0.79185    
    108.84      0.79187    
    109.12      0.79189    
    109.40      0.79188    
    109.68      0.79185    
    109.96      0.79182    
    110.24      0.79179    
    110.52      0.79176    
    110.80      0.79172    
    111.08      0.79168    
    111.36      0.79162    
    111.64      0.79155    
    111.92      0.79149    
    112.20      0.79142    
    112.48      0.79136    
    112.76      0.79129    
    113.04      0.79123    
    113.32      0.79117    
    113.60      0.79110    
    113.88      0.79104    
    114.16      0.79098    
    114.44      0.79091    
    114.72      0.79085    
    115.00      0.79080    
    115.28      0.79075    
    115.56      0.79069    
    115.84      0.79064    
    116.12      0.79058    
    116.40      0.79052    
    116.68      0.79047    
    116.96      0.79042    
    117.24      0.79036    
    117.52      0.79031    
    117.80      0.79025    
    118.08      0.79020    
    118.36      0.79014    
    118.64      0.79008    
    118.92      0.79003    
    119.20      0.78997    
    119.48      0.78991    
    119.76      0.78985    
    120.04      0.78979    
    120.32      0.78973    
    120.60      0.78967    
    120.88      0.78961    
    121.16      0.78955    
    121.44      0.78949    
    121.72      0.78943    
    122.00      0.78936    
    122.28      0.78930    
    122.56      0.78924    
    122.84      0.78917    
    123.12      0.78911    
    123.40      0.78905    
    123.68      0.78898    
    123.96      0.78892    
    124.24      0.78885    
    124.52      0.78878    
    124.80      0.78872    
    125.08      0.78865    
    125.36      0.78858    
    125.64      0.78852    
    125.92      0.78845    
    126.20      0.78838    
    126.48      0.78831    
    126.76      0.78824    
    127.04      0.78817    
    127.32      0.78810    
    127.60      0.78803    
    127.88      0.78796    
    128.16      0.78789    
    128.44      0.78784    
    128.72      0.78778    
    129.00      0.78773    
    129.28      0.78768    
    129.56      0.78762    
    129.84      0.78757    
    130.12      0.78751    
    130.40      0.78747    
    130.68      0.78743    
    130.96      0.78740    
    131.24      0.78737    
    131.52      0.78733    
    131.80      0.78730    
    132.08      0.78726    
    132.36      0.78723    
    132.64      0.78719    
    132.92      0.78716    
    133.20      0.78713    
    133.48      0.78710    
    133.76      0.78706    
    134.04      0.78703    
    134.32      0.78700    
    134.60      0.78696    
    134.88      0.78693    
    135.16      0.78690    
    135.44      0.78686    
    135.72      0.78683    
    136.00      0.78680    
    136.28      0.78676    
    136.56      0.78673    
    136.84      0.78669    
    137.12      0.78666    
    137.40      0.78662    
    137.68      0.78659    
    137.96      0.78655    
    138.24      0.78651    
    138.52      0.78648    
    138.80      0.78644    
    139.08      0.78640    
    139.36      0.78637    
    139.64      0.78633    
    139.92      0.78629    
    140.20      0.78625    
    140.48      0.78621    
    140.76      0.78617    
    141.04      0.78613    
    141.32      0.78610    
    141.60      0.78606    
    141.88      0.78602    
    142.16      0.78598    
    142.44      0.78594    
    142.72      0.78589    
    143.00      0.78585    
    143.28      0.78581    
    143.56      0.78577    
    143.84      0.78573    
    144.12      0.78569    
    144.40      0.78565    
    144.68      0.78560    
    144.96      0.78556    
    145.24      0.78552    
    145.52      0.78547    
    145.80      0.78543    
    146.08      0.78539    
    146.36      0.78534    
    146.64      0.78529    
    146.92      0.78525    
    147.20      0.78520    
    147.48      0.78516    
    147.76      0.78511    
    148.04      0.78506    
    148.32      0.78501    
    148.60      0.78496    
    148.88      0.78491    
    149.16      0.78486    
    149.44      0.78481    
    149.72      0.78476    
    150.00      0.78471    
