 Ar Pressure=1. Path=1. cm
 Photon Energy (eV), Transmission
    20.000      0.29405    
    20.160      0.29442    
    20.320      0.29480    
    20.480      0.29519    
    20.640      0.29559    
    20.800      0.29598    
    20.960      0.29638    
    21.120      0.29676    
    21.280      0.29715    
    21.440      0.29753    
    21.600      0.29791    
    21.760      0.29829    
    21.920      0.29866    
    22.080      0.29947    
    22.240      0.30038    
    22.400      0.30147    
    22.560      0.30268    
    22.720      0.30388    
    22.880      0.30507    
    23.040      0.30626    
    23.200      0.30744    
    23.360      0.30861    
    23.520      0.30977    
    23.680      0.31093    
    23.840      0.31208    
    24.000      0.31322    
    24.160      0.31435    
    24.320      0.31548    
    24.480      0.31660    
    24.640      0.31772    
    24.800      0.31882    
    24.960      0.31993    
    25.120      0.32135    
    25.280      0.32276    
    25.440      0.32465    
    25.600      0.32701    
    25.760      0.32936    
    25.920      0.33170    
    26.080      0.33403    
    26.240      0.33634    
    26.400      0.33864    
    26.560      0.34093    
    26.720      0.34320    
    26.880      0.34546    
    27.040      0.34771    
    27.200      0.34995    
    27.360      0.35217    
    27.520      0.35450    
    27.680      0.35713    
    27.840      0.35975    
    28.000      0.36290    
    28.160      0.36661    
    28.320      0.37030    
    28.480      0.37397    
    28.640      0.37761    
    28.800      0.38124    
    28.960      0.38485    
    29.120      0.38843    
    29.280      0.39199    
    29.440      0.39553    
    29.600      0.39905    
    29.760      0.40255    
    29.920      0.40670    
    30.080      0.41088    
    30.240      0.41504    
    30.400      0.42103    
    30.560      0.42717    
    30.720      0.43326    
    30.880      0.43931    
    31.040      0.44531    
    31.200      0.45126    
    31.360      0.45716    
    31.520      0.46301    
    31.680      0.46880    
    31.840      0.47455    
    32.000      0.48024    
    32.160      0.48588    
    32.320      0.49146    
    32.480      0.49700    
    32.640      0.50248    
    32.800      0.50795    
    32.960      0.51378    
    33.120      0.51955    
    33.280      0.52525    
    33.440      0.53151    
    33.600      0.53786    
    33.760      0.54413    
    33.920      0.55032    
    34.080      0.55644    
    34.240      0.56248    
    34.400      0.56845    
    34.560      0.57434    
    34.720      0.58016    
    34.880      0.58590    
    35.040      0.59157    
    35.200      0.59717    
    35.360      0.60269    
    35.520      0.60813    
    35.680      0.61366    
    35.840      0.61912    
    36.000      0.62450    
    36.160      0.63198    
    36.320      0.64250    
    36.480      0.65275    
    36.640      0.66276    
    36.800      0.67250    
    36.960      0.68200    
    37.120      0.69125    
    37.280      0.70025    
    37.440      0.70902    
    37.600      0.71754    
    37.760      0.72583    
    37.920      0.73488    
    38.080      0.74611    
    38.240      0.75690    
    38.400      0.76726    
    38.560      0.77780    
    38.720      0.78857    
    38.880      0.79885    
    39.040      0.80865    
    39.200      0.81800    
    39.360      0.82690    
    39.520      0.83538    
    39.680      0.84345    
    39.840      0.85113    
    40.000      0.85844    
    40.160      0.86539    
    40.320      0.87200    
    40.480      0.87828    
    40.640      0.88425    
    40.800      0.88993    
    40.960      0.89533    
    41.120      0.90045    
    41.280      0.90532    
    41.440      0.90995    
    41.600      0.91434    
    41.760      0.91850    
    41.920      0.92245    
    42.080      0.92619    
    42.240      0.92975    
    42.400      0.93306    
    42.560      0.93582    
    42.720      0.93846    
    42.880      0.94099    
    43.040      0.94341    
    43.200      0.94572    
    43.360      0.94793    
    43.520      0.95005    
    43.680      0.95208    
    43.840      0.95392    
    44.000      0.95558    
    44.160      0.95718    
    44.320      0.95872    
    44.480      0.96015    
    44.640      0.96103    
    44.800      0.96188    
    44.960      0.96271    
    45.120      0.96352    
    45.280      0.96432    
    45.440      0.96509    
    45.600      0.96584    
    45.760      0.96657    
    45.920      0.96728    
    46.080      0.96759    
    46.240      0.96789    
    46.400      0.96819    
    46.560      0.96848    
    46.720      0.96873    
    46.880      0.96892    
    47.040      0.96911    
    47.200      0.96929    
    47.360      0.96947    
    47.520      0.96966    
    47.680      0.96983    
    47.840      0.97001    
    48.000      0.97019    
    48.160      0.97036    
    48.320      0.97048    
    48.480      0.97059    
    48.640      0.97070    
    48.800      0.97081    
    48.960      0.97092    
    49.120      0.97102    
    49.280      0.97112    
    49.440      0.97122    
    49.600      0.97131    
    49.760      0.97141    
    49.920      0.97150    
    50.080      0.97160    
    50.240      0.97169    
    50.400      0.97178    
    50.560      0.97187    
    50.720      0.97180    
    50.880      0.97174    
    51.040      0.97167    
    51.200      0.97160    
    51.360      0.97153    
    51.520      0.97147    
    51.680      0.97140    
    51.840      0.97133    
    52.000      0.97126    
    52.160      0.97120    
    52.320      0.97113    
    52.480      0.97106    
    52.640      0.97100    
    52.800      0.97093    
    52.960      0.97086    
    53.120      0.97079    
    53.280      0.97073    
    53.440      0.97066    
    53.600      0.97059    
    53.760      0.97053    
    53.920      0.97046    
    54.080      0.97034    
    54.240      0.97022    
    54.400      0.97010    
    54.560      0.96998    
    54.720      0.96986    
    54.880      0.96973    
    55.040      0.96959    
    55.200      0.96945    
    55.360      0.96930    
    55.520      0.96916    
    55.680      0.96902    
    55.840      0.96887    
    56.000      0.96873    
    56.160      0.96858    
    56.320      0.96844    
    56.480      0.96830    
    56.640      0.96815    
    56.800      0.96801    
    56.960      0.96786    
    57.120      0.96771    
    57.280      0.96757    
    57.440      0.96742    
    57.600      0.96728    
    57.760      0.96713    
    57.920      0.96698    
    58.080      0.96683    
    58.240      0.96669    
    58.400      0.96654    
    58.560      0.96636    
    58.720      0.96618    
    58.880      0.96599    
    59.040      0.96581    
    59.200      0.96563    
    59.360      0.96545    
    59.520      0.96526    
    59.680      0.96508    
    59.840      0.96489    
    60.000      0.96471    
    60.160      0.96452    
    60.320      0.96433    
    60.480      0.96415    
    60.640      0.96396    
    60.800      0.96377    
    60.960      0.96358    
    61.120      0.96340    
    61.280      0.96321    
    61.440      0.96302    
    61.600      0.96283    
    61.760      0.96264    
    61.920      0.96245    
    62.080      0.96225    
    62.240      0.96206    
    62.400      0.96187    
    62.560      0.96168    
    62.720      0.96148    
    62.880      0.96129    
    63.040      0.96110    
    63.200      0.96090    
    63.360      0.96071    
    63.520      0.96051    
    63.680      0.96032    
    63.840      0.96012    
    64.000      0.95992    
    64.160      0.95972    
    64.320      0.95953    
    64.480      0.95938    
    64.640      0.95924    
    64.800      0.95910    
    64.960      0.95895    
    65.120      0.95881    
    65.280      0.95866    
    65.440      0.95855    
    65.600      0.95845    
    65.760      0.95836    
    65.920      0.95827    
    66.080      0.95818    
    66.240      0.95808    
    66.400      0.95799    
    66.560      0.95790    
    66.720      0.95781    
    66.880      0.95771    
    67.040      0.95762    
    67.200      0.95753    
    67.360      0.95743    
    67.520      0.95734    
    67.680      0.95725    
    67.840      0.95716    
    68.000      0.95707    
    68.160      0.95697    
    68.320      0.95688    
    68.480      0.95679    
    68.640      0.95670    
    68.800      0.95660    
    68.960      0.95651    
    69.120      0.95642    
    69.280      0.95633    
    69.440      0.95624    
    69.600      0.95614    
    69.760      0.95605    
    69.920      0.95596    
    70.080      0.95587    
    70.240      0.95577    
    70.400      0.95568    
    70.560      0.95559    
    70.720      0.95550    
    70.880      0.95541    
    71.040      0.95531    
    71.200      0.95522    
    71.360      0.95513    
    71.520      0.95504    
    71.680      0.95495    
    71.840      0.95486    
    72.000      0.95478    
    72.160      0.95475    
    72.320      0.95472    
    72.480      0.95468    
    72.640      0.95465    
    72.800      0.95462    
    72.960      0.95459    
    73.120      0.95456    
    73.280      0.95453    
    73.440      0.95450    
    73.600      0.95448    
    73.760      0.95445    
    73.920      0.95442    
    74.080      0.95439    
    74.240      0.95437    
    74.400      0.95434    
    74.560      0.95431    
    74.720      0.95428    
    74.880      0.95426    
    75.040      0.95423    
    75.200      0.95420    
    75.360      0.95417    
    75.520      0.95415    
    75.680      0.95412    
    75.840      0.95409    
    76.000      0.95407    
    76.160      0.95404    
    76.320      0.95401    
    76.480      0.95398    
    76.640      0.95396    
    76.800      0.95393    
    76.960      0.95390    
    77.120      0.95388    
    77.280      0.95385    
    77.440      0.95382    
    77.600      0.95380    
    77.760      0.95377    
    77.920      0.95374    
    78.080      0.95372    
    78.240      0.95369    
    78.400      0.95366    
    78.560      0.95364    
    78.720      0.95361    
    78.880      0.95358    
    79.040      0.95356    
    79.200      0.95353    
    79.360      0.95353    
    79.520      0.95353    
    79.680      0.95354    
    79.840      0.95354    
    80.000      0.95355    
    80.160      0.95355    
    80.320      0.95355    
    80.480      0.95356    
    80.640      0.95359    
    80.800      0.95362    
    80.960      0.95365    
    81.120      0.95368    
    81.280      0.95371    
    81.440      0.95374    
    81.600      0.95378    
    81.760      0.95381    
    81.920      0.95384    
    82.080      0.95387    
    82.240      0.95390    
    82.400      0.95393    
    82.560      0.95397    
    82.720      0.95400    
    82.880      0.95403    
    83.040      0.95406    
    83.200      0.95409    
    83.360      0.95412    
    83.520      0.95415    
    83.680      0.95418    
    83.840      0.95421    
    84.000      0.95424    
    84.160      0.95427    
    84.320      0.95430    
    84.480      0.95433    
    84.640      0.95436    
    84.800      0.95439    
    84.960      0.95442    
    85.120      0.95445    
    85.280      0.95448    
    85.440      0.95451    
    85.600      0.95454    
    85.760      0.95457    
    85.920      0.95460    
    86.080      0.95463    
    86.240      0.95466    
    86.400      0.95469    
    86.560      0.95472    
    86.720      0.95475    
    86.880      0.95478    
    87.040      0.95481    
    87.200      0.95484    
    87.360      0.95487    
    87.520      0.95489    
    87.680      0.95492    
    87.840      0.95495    
    88.000      0.95498    
    88.160      0.95501    
    88.320      0.95504    
    88.480      0.95507    
    88.640      0.95510    
    88.800      0.95512    
    88.960      0.95515    
    89.120      0.95518    
    89.280      0.95521    
    89.440      0.95524    
    89.600      0.95526    
    89.760      0.95529    
    89.920      0.95532    
    90.080      0.95535    
    90.240      0.95538    
    90.400      0.95540    
    90.560      0.95543    
    90.720      0.95546    
    90.880      0.95549    
    91.040      0.95551    
    91.200      0.95554    
    91.360      0.95557    
    91.520      0.95559    
    91.680      0.95562    
    91.840      0.95565    
    92.000      0.95568    
    92.160      0.95570    
    92.320      0.95573    
    92.480      0.95576    
    92.640      0.95578    
    92.800      0.95581    
    92.960      0.95584    
    93.120      0.95586    
    93.280      0.95589    
    93.440      0.95592    
    93.600      0.95594    
    93.760      0.95597    
    93.920      0.95600    
    94.080      0.95602    
    94.240      0.95605    
    94.400      0.95607    
    94.560      0.95610    
    94.720      0.95613    
    94.880      0.95615    
    95.040      0.95618    
    95.200      0.95620    
    95.360      0.95623    
    95.520      0.95625    
    95.680      0.95628    
    95.840      0.95631    
    96.000      0.95633    
    96.160      0.95637    
    96.320      0.95640    
    96.480      0.95644    
    96.640      0.95648    
    96.800      0.95652    
    96.960      0.95656    
    97.120      0.95659    
    97.280      0.95663    
    97.440      0.95667    
    97.600      0.95671    
    97.760      0.95677    
    97.920      0.95684    
    98.080      0.95690    
    98.240      0.95696    
    98.400      0.95703    
    98.560      0.95709    
    98.720      0.95716    
    98.880      0.95722    
    99.040      0.95728    
    99.200      0.95735    
    99.360      0.95741    
    99.520      0.95747    
    99.680      0.95753    
    99.840      0.95760    
    100.00      0.95766    
